frequency	e'	e''
1000000000.0000	  75.8813	   5.1081
1008000000.0000	  75.5569	   4.9932
1016000000.0000	  75.3051	   4.7867
1024000000.0000	  75.1730	   4.4877
1032000000.0000	  75.1849	   4.1948
1040000000.0000	  75.2945	   3.9499
1048000000.0000	  75.4987	   3.7986
1056000000.0000	  75.6971	   3.7787
1064000000.0000	  75.8265	   3.8313
1072000000.0000	  75.8944	   3.8979
1080000000.0000	  75.9349	   3.9544
1088000000.0000	  75.9466	   3.9976
1096000000.0000	  75.9648	   4.0340
1104000000.0000	  75.9743	   4.0675
1112000000.0000	  75.9797	   4.1110
1120000000.0000	  75.9701	   4.1316
1128000000.0000	  75.9670	   4.1633
1136000000.0000	  75.9625	   4.1896
1144000000.0000	  75.9663	   4.2185
1152000000.0000	  75.9698	   4.2351
1160000000.0000	  75.9596	   4.2811
1168000000.0000	  75.9500	   4.3183
1176000000.0000	  75.9415	   4.3518
1184000000.0000	  75.9123	   4.3872
1192000000.0000	  75.8696	   4.4241
1200000000.0000	  75.8331	   4.4407
1208000000.0000	  75.7628	   4.4620
1216000000.0000	  75.7080	   4.4544
1224000000.0000	  75.6425	   4.4043
1232000000.0000	  75.6217	   4.3486
1240000000.0000	  75.6171	   4.2930
1248000000.0000	  75.6465	   4.2314
1256000000.0000	  75.7020	   4.1729
1264000000.0000	  75.7813	   4.1613
1272000000.0000	  75.8508	   4.1809
1280000000.0000	  75.9095	   4.2346
1288000000.0000	  75.9396	   4.2821
1296000000.0000	  75.9613	   4.3514
1304000000.0000	  75.9606	   4.4146
1312000000.0000	  75.9559	   4.4793
1320000000.0000	  75.9409	   4.5310
1328000000.0000	  75.9119	   4.5876
1336000000.0000	  75.8852	   4.6300
1344000000.0000	  75.8471	   4.6916
1352000000.0000	  75.7964	   4.7266
1360000000.0000	  75.7369	   4.7737
1368000000.0000	  75.6554	   4.7854
1376000000.0000	  75.5691	   4.7876
1384000000.0000	  75.4864	   4.7625
1392000000.0000	  75.4069	   4.6970
1400000000.0000	  75.3349	   4.6214
1408000000.0000	  75.2823	   4.5124
1416000000.0000	  75.2654	   4.3827
1424000000.0000	  75.2745	   4.2271
1432000000.0000	  75.3442	   4.0586
1440000000.0000	  75.4593	   3.9016
1448000000.0000	  75.6472	   3.7579
1456000000.0000	  75.8725	   3.6717
1464000000.0000	  76.1337	   3.6634
1472000000.0000	  76.3706	   3.7389
1480000000.0000	  76.5688	   3.8680
1488000000.0000	  76.6936	   4.0221
1496000000.0000	  76.7866	   4.1743
1504000000.0000	  76.8274	   4.2924
1512000000.0000	  76.8433	   4.4122
1520000000.0000	  76.8490	   4.5116
1528000000.0000	  76.8402	   4.5997
1536000000.0000	  76.8261	   4.6748
1544000000.0000	  76.8066	   4.7491
1552000000.0000	  76.7857	   4.8001
1560000000.0000	  76.7634	   4.8604
1568000000.0000	  76.7392	   4.9003
1576000000.0000	  76.7293	   4.9341
1584000000.0000	  76.7129	   4.9813
1592000000.0000	  76.6949	   5.0151
1600000000.0000	  76.6955	   5.0487
1608000000.0000	  76.6873	   5.0843
1616000000.0000	  76.6845	   5.1248
1624000000.0000	  76.6867	   5.1587
1632000000.0000	  76.6771	   5.1985
1640000000.0000	  76.6791	   5.2376
1648000000.0000	  76.6734	   5.2791
1656000000.0000	  76.6663	   5.3141
1664000000.0000	  76.6619	   5.3607
1672000000.0000	  76.6548	   5.4035
1680000000.0000	  76.6491	   5.4476
1688000000.0000	  76.6581	   5.4866
1696000000.0000	  76.6572	   5.5305
1704000000.0000	  76.6523	   5.5941
1712000000.0000	  76.6428	   5.6458
1720000000.0000	  76.6325	   5.6925
1728000000.0000	  76.6185	   5.7456
1736000000.0000	  76.5979	   5.8011
1744000000.0000	  76.5802	   5.8444
1752000000.0000	  76.5588	   5.8779
1760000000.0000	  76.5409	   5.9249
1768000000.0000	  76.5099	   5.9616
1776000000.0000	  76.4840	   5.9934
1784000000.0000	  76.4683	   6.0289
1792000000.0000	  76.4473	   6.0551
1800000000.0000	  76.4414	   6.0895
1808000000.0000	  76.4241	   6.1207
1816000000.0000	  76.4182	   6.1500
1824000000.0000	  76.4187	   6.1839
1832000000.0000	  76.4156	   6.2066
1840000000.0000	  76.4190	   6.2357
1848000000.0000	  76.4249	   6.2664
1856000000.0000	  76.4325	   6.3014
1864000000.0000	  76.4320	   6.3306
1872000000.0000	  76.4470	   6.3639
1880000000.0000	  76.4505	   6.4018
1888000000.0000	  76.4663	   6.4322
1896000000.0000	  76.4756	   6.4712
1904000000.0000	  76.4884	   6.4994
1912000000.0000	  76.5018	   6.5392
1920000000.0000	  76.5107	   6.5783
1928000000.0000	  76.5223	   6.6191
1936000000.0000	  76.5306	   6.6594
1944000000.0000	  76.5397	   6.7048
1952000000.0000	  76.5379	   6.7674
1960000000.0000	  76.5357	   6.8277
1968000000.0000	  76.5261	   6.8793
1976000000.0000	  76.5073	   6.9427
1984000000.0000	  76.4868	   7.0004
1992000000.0000	  76.4602	   7.0644
2000000000.0000	  76.4310	   7.1060
2008000000.0000	  76.4022	   7.1716
2016000000.0000	  76.3668	   7.2248
2024000000.0000	  76.3213	   7.2697
2032000000.0000	  76.2800	   7.3124
2040000000.0000	  76.2362	   7.3767
2048000000.0000	  76.1790	   7.4173
2056000000.0000	  76.1313	   7.4613
2064000000.0000	  76.0815	   7.5092
2072000000.0000	  76.0179	   7.5585
2080000000.0000	  75.9533	   7.6015
2088000000.0000	  75.8888	   7.6412
2096000000.0000	  75.8156	   7.6702
2104000000.0000	  75.7476	   7.7006
2112000000.0000	  75.6800	   7.7234
2120000000.0000	  75.6059	   7.7439
2128000000.0000	  75.5337	   7.7473
2136000000.0000	  75.4562	   7.7440
2144000000.0000	  75.3931	   7.7376
2152000000.0000	  75.3373	   7.7275
2160000000.0000	  75.2858	   7.7106
2168000000.0000	  75.2430	   7.6984
2176000000.0000	  75.2024	   7.6901
2184000000.0000	  75.1619	   7.6813
2192000000.0000	  75.1329	   7.6766
2200000000.0000	  75.0977	   7.6592
2208000000.0000	  75.0736	   7.6592
2216000000.0000	  75.0372	   7.6544
2224000000.0000	  75.0047	   7.6440
2232000000.0000	  74.9711	   7.6398
2240000000.0000	  74.9376	   7.6337
2248000000.0000	  74.9057	   7.6266
2256000000.0000	  74.8741	   7.6050
2264000000.0000	  74.8499	   7.5843
2272000000.0000	  74.8247	   7.5627
2280000000.0000	  74.8120	   7.5384
2288000000.0000	  74.7975	   7.4987
2296000000.0000	  74.8035	   7.4653
2304000000.0000	  74.7944	   7.4313
2312000000.0000	  74.8113	   7.3863
2320000000.0000	  74.8206	   7.3506
2328000000.0000	  74.8403	   7.3130
2336000000.0000	  74.8711	   7.2759
2344000000.0000	  74.9147	   7.2416
2352000000.0000	  74.9630	   7.2140
2360000000.0000	  75.0142	   7.1953
2368000000.0000	  75.0638	   7.1752
2376000000.0000	  75.1185	   7.1655
2384000000.0000	  75.1481	   7.1601
2392000000.0000	  75.1937	   7.1692
2400000000.0000	  75.2226	   7.1695
2408000000.0000	  75.2557	   7.1741
2416000000.0000	  75.2791	   7.1856
2424000000.0000	  75.2976	   7.1936
2432000000.0000	  75.3159	   7.2158
2440000000.0000	  75.3331	   7.2290
2448000000.0000	  75.3499	   7.2481
2456000000.0000	  75.3627	   7.2639
2464000000.0000	  75.3720	   7.2806
2472000000.0000	  75.3744	   7.3018
2480000000.0000	  75.3774	   7.3243
2488000000.0000	  75.3799	   7.3305
2496000000.0000	  75.3821	   7.3484
2504000000.0000	  75.3744	   7.3612
2512000000.0000	  75.3787	   7.3749
2520000000.0000	  75.3789	   7.3826
2528000000.0000	  75.3866	   7.3917
2536000000.0000	  75.3962	   7.3997
2544000000.0000	  75.4130	   7.4258
2552000000.0000	  75.4360	   7.4407
2560000000.0000	  75.4669	   7.4558
2568000000.0000	  75.4957	   7.4810
2576000000.0000	  75.5370	   7.5113
2584000000.0000	  75.5761	   7.5380
2592000000.0000	  75.6166	   7.5803
2600000000.0000	  75.6619	   7.6272
2608000000.0000	  75.7032	   7.6761
2616000000.0000	  75.7363	   7.7342
2624000000.0000	  75.7690	   7.7919
2632000000.0000	  75.7851	   7.8607
2640000000.0000	  75.8041	   7.9339
2648000000.0000	  75.8145	   7.9965
2656000000.0000	  75.8238	   8.0652
2664000000.0000	  75.8194	   8.1267
2672000000.0000	  75.8146	   8.1958
2680000000.0000	  75.7976	   8.2520
2688000000.0000	  75.7895	   8.3003
2696000000.0000	  75.7818	   8.3619
2704000000.0000	  75.7683	   8.4102
2712000000.0000	  75.7565	   8.4610
2720000000.0000	  75.7422	   8.5041
2728000000.0000	  75.7348	   8.5523
2736000000.0000	  75.7277	   8.5915
2744000000.0000	  75.7147	   8.6371
2752000000.0000	  75.7082	   8.6742
2760000000.0000	  75.7070	   8.7163
2768000000.0000	  75.6966	   8.7399
2776000000.0000	  75.6935	   8.7822
2784000000.0000	  75.7011	   8.8129
2792000000.0000	  75.6938	   8.8418
2800000000.0000	  75.6958	   8.8734
2808000000.0000	  75.6952	   8.9106
2816000000.0000	  75.6962	   8.9412
2824000000.0000	  75.6938	   8.9717
2832000000.0000	  75.6977	   9.0029
2840000000.0000	  75.6914	   9.0310
2848000000.0000	  75.6823	   9.0637
2856000000.0000	  75.6706	   9.0934
2864000000.0000	  75.6611	   9.1220
2872000000.0000	  75.6417	   9.1603
2880000000.0000	  75.6317	   9.1855
2888000000.0000	  75.6127	   9.2130
2896000000.0000	  75.5875	   9.2403
2904000000.0000	  75.5685	   9.2720
2912000000.0000	  75.5470	   9.3010
2920000000.0000	  75.5336	   9.3359
2928000000.0000	  75.5042	   9.3554
2936000000.0000	  75.4909	   9.3835
2944000000.0000	  75.4777	   9.4085
2952000000.0000	  75.4583	   9.4373
2960000000.0000	  75.4426	   9.4688
2968000000.0000	  75.4286	   9.4921
2976000000.0000	  75.4081	   9.5176
2984000000.0000	  75.3999	   9.5338
2992000000.0000	  75.3811	   9.5633
3000000000.0000	  75.3748	   9.5959
3008000000.0000	  75.3715	   9.6265
3016000000.0000	  75.3590	   9.6531
3024000000.0000	  75.3502	   9.6799
3032000000.0000	  75.3509	   9.7092
3040000000.0000	  75.3507	   9.7409
3048000000.0000	  75.3396	   9.7696
3056000000.0000	  75.3359	   9.8006
3064000000.0000	  75.3272	   9.8316
3072000000.0000	  75.3240	   9.8651
3080000000.0000	  75.3148	   9.8876
3088000000.0000	  75.3071	   9.9277
3096000000.0000	  75.2936	   9.9488
3104000000.0000	  75.2837	   9.9800
3112000000.0000	  75.2727	  10.0058
3120000000.0000	  75.2526	  10.0274
3128000000.0000	  75.2365	  10.0259
3136000000.0000	  75.2170	  10.0557
3144000000.0000	  75.1991	  10.0753
3152000000.0000	  75.1817	  10.0856
3160000000.0000	  75.1615	  10.1041
3168000000.0000	  75.1365	  10.1284
3176000000.0000	  75.1130	  10.1300
3184000000.0000	  75.1015	  10.1456
3192000000.0000	  75.0742	  10.1637
3200000000.0000	  75.0620	  10.1756
3208000000.0000	  75.0460	  10.1933
3216000000.0000	  75.0294	  10.2107
3224000000.0000	  75.0147	  10.2421
3232000000.0000	  75.0165	  10.2570
3240000000.0000	  74.9978	  10.2732
3248000000.0000	  74.9879	  10.2916
3256000000.0000	  74.9779	  10.3069
3264000000.0000	  74.9587	  10.3240
3272000000.0000	  74.9468	  10.3544
3280000000.0000	  74.9357	  10.3687
3288000000.0000	  74.9238	  10.3935
3296000000.0000	  74.9057	  10.4176
3304000000.0000	  74.8891	  10.4372
3312000000.0000	  74.8812	  10.4606
3320000000.0000	  74.8590	  10.5050
3328000000.0000	  74.8472	  10.5221
3336000000.0000	  74.8231	  10.5547
3344000000.0000	  74.8107	  10.5846
3352000000.0000	  74.7883	  10.6110
3360000000.0000	  74.7662	  10.6343
3368000000.0000	  74.7495	  10.6764
3376000000.0000	  74.7227	  10.7042
3384000000.0000	  74.7021	  10.7339
3392000000.0000	  74.6854	  10.7535
3400000000.0000	  74.6744	  10.7769
3408000000.0000	  74.6510	  10.8118
3416000000.0000	  74.6412	  10.8185
3424000000.0000	  74.6343	  10.8425
3432000000.0000	  74.6268	  10.8598
3440000000.0000	  74.6049	  10.8652
3448000000.0000	  74.6004	  10.8717
3456000000.0000	  74.5942	  10.8751
3464000000.0000	  74.5877	  10.8895
3472000000.0000	  74.5787	  10.8893
3480000000.0000	  74.5706	  10.8944
3488000000.0000	  74.5757	  10.8956
3496000000.0000	  74.5807	  10.9009
3504000000.0000	  74.5838	  10.9080
3512000000.0000	  74.5934	  10.9122
3520000000.0000	  74.5940	  10.9272
3528000000.0000	  74.5969	  10.9231
3536000000.0000	  74.5924	  10.9305
3544000000.0000	  74.5858	  10.9428
3552000000.0000	  74.5789	  10.9520
3560000000.0000	  74.5741	  10.9595
3568000000.0000	  74.5571	  10.9792
3576000000.0000	  74.5451	  10.9910
3584000000.0000	  74.5382	  11.0061
3592000000.0000	  74.5257	  11.0260
3600000000.0000	  74.5185	  11.0458
3608000000.0000	  74.5135	  11.0568
3616000000.0000	  74.5134	  11.0775
3624000000.0000	  74.4957	  11.0990
3632000000.0000	  74.4965	  11.1129
3640000000.0000	  74.4904	  11.1389
3648000000.0000	  74.4800	  11.1617
3656000000.0000	  74.4697	  11.1822
3664000000.0000	  74.4717	  11.2096
3672000000.0000	  74.4718	  11.2348
3680000000.0000	  74.4725	  11.2638
3688000000.0000	  74.4694	  11.2941
3696000000.0000	  74.4680	  11.3199
3704000000.0000	  74.4674	  11.3496
3712000000.0000	  74.4694	  11.3769
3720000000.0000	  74.4671	  11.3971
3728000000.0000	  74.4630	  11.4132
3736000000.0000	  74.4504	  11.4348
3744000000.0000	  74.4419	  11.4567
3752000000.0000	  74.4377	  11.4701
3760000000.0000	  74.4344	  11.4994
3768000000.0000	  74.4306	  11.5157
3776000000.0000	  74.4146	  11.5311
3784000000.0000	  74.4062	  11.5468
3792000000.0000	  74.4014	  11.5674
3800000000.0000	  74.3935	  11.5767
3808000000.0000	  74.3931	  11.5914
3816000000.0000	  74.3817	  11.6073
3824000000.0000	  74.3785	  11.6273
3832000000.0000	  74.3697	  11.6421
3840000000.0000	  74.3626	  11.6589
3848000000.0000	  74.3625	  11.6731
3856000000.0000	  74.3584	  11.7052
3864000000.0000	  74.3535	  11.7132
3872000000.0000	  74.3537	  11.7411
3880000000.0000	  74.3680	  11.7631
3888000000.0000	  74.3748	  11.7789
3896000000.0000	  74.3799	  11.7907
3904000000.0000	  74.3765	  11.8161
3912000000.0000	  74.3685	  11.8380
3920000000.0000	  74.3781	  11.8638
3928000000.0000	  74.3918	  11.8845
3936000000.0000	  74.3930	  11.9070
3944000000.0000	  74.4028	  11.9324
3952000000.0000	  74.4026	  11.9556
3960000000.0000	  74.3998	  11.9965
3968000000.0000	  74.4147	  12.0143
3976000000.0000	  74.4192	  12.0380
3984000000.0000	  74.4283	  12.0692
3992000000.0000	  74.4225	  12.0924
4000000000.0000	  74.4265	  12.1184
4008000000.0000	  74.4284	  12.1476
4016000000.0000	  74.4248	  12.1672
4024000000.0000	  74.4349	  12.1937
4032000000.0000	  74.4293	  12.2233
4040000000.0000	  74.4278	  12.2463
4048000000.0000	  74.4260	  12.2631
4056000000.0000	  74.4285	  12.2873
4064000000.0000	  74.4350	  12.3185
4072000000.0000	  74.4348	  12.3454
4080000000.0000	  74.4343	  12.3593
4088000000.0000	  74.4283	  12.3812
4096000000.0000	  74.4202	  12.4058
4104000000.0000	  74.4191	  12.4129
4112000000.0000	  74.4057	  12.4490
4120000000.0000	  74.4111	  12.4681
4128000000.0000	  74.4004	  12.4940
4136000000.0000	  74.3860	  12.5165
4144000000.0000	  74.3829	  12.5416
4152000000.0000	  74.3749	  12.5798
4160000000.0000	  74.3801	  12.6107
4168000000.0000	  74.3673	  12.6174
4176000000.0000	  74.3673	  12.6590
4184000000.0000	  74.3597	  12.6848
4192000000.0000	  74.3604	  12.7185
4200000000.0000	  74.3454	  12.7568
4208000000.0000	  74.3362	  12.7901
4216000000.0000	  74.3277	  12.8162
4224000000.0000	  74.3272	  12.8518
4232000000.0000	  74.3205	  12.8966
4240000000.0000	  74.3141	  12.9391
4248000000.0000	  74.3068	  12.9831
4256000000.0000	  74.3049	  13.0255
4264000000.0000	  74.2962	  13.0580
4272000000.0000	  74.2809	  13.1076
4280000000.0000	  74.2724	  13.1442
4288000000.0000	  74.2573	  13.1919
4296000000.0000	  74.2466	  13.2208
4304000000.0000	  74.2342	  13.2730
4312000000.0000	  74.2100	  13.3152
4320000000.0000	  74.1961	  13.3631
4328000000.0000	  74.1809	  13.4067
4336000000.0000	  74.1690	  13.4473
4344000000.0000	  74.1406	  13.4960
4352000000.0000	  74.1273	  13.5241
4360000000.0000	  74.0969	  13.5654
4368000000.0000	  74.0911	  13.5943
4376000000.0000	  74.0651	  13.6395
4384000000.0000	  74.0367	  13.6694
4392000000.0000	  74.0279	  13.6932
4400000000.0000	  74.0012	  13.7086
4408000000.0000	  73.9793	  13.7444
4416000000.0000	  73.9582	  13.7877
4424000000.0000	  73.9402	  13.8101
4432000000.0000	  73.9197	  13.8375
4440000000.0000	  73.9021	  13.8746
4448000000.0000	  73.8918	  13.8949
4456000000.0000	  73.8834	  13.9213
4464000000.0000	  73.8509	  13.9391
4472000000.0000	  73.8260	  13.9605
4480000000.0000	  73.8102	  13.9807
4488000000.0000	  73.7916	  14.0129
4496000000.0000	  73.7775	  14.0203
4504000000.0000	  73.7328	  14.0458
4512000000.0000	  73.7184	  14.0769
4520000000.0000	  73.7018	  14.0914
4528000000.0000	  73.6860	  14.1106
4536000000.0000	  73.6668	  14.1310
4544000000.0000	  73.6518	  14.1501
4552000000.0000	  73.6125	  14.1795
4560000000.0000	  73.6048	  14.1852
4568000000.0000	  73.5934	  14.2017
4576000000.0000	  73.5773	  14.2200
4584000000.0000	  73.5652	  14.2347
4592000000.0000	  73.5453	  14.2640
4600000000.0000	  73.5251	  14.2776
4608000000.0000	  73.5126	  14.2814
4616000000.0000	  73.4953	  14.3014
4624000000.0000	  73.4869	  14.3262
4632000000.0000	  73.4653	  14.3498
4640000000.0000	  73.4567	  14.3668
4648000000.0000	  73.4525	  14.3761
4656000000.0000	  73.4283	  14.3945
4664000000.0000	  73.4204	  14.4222
4672000000.0000	  73.3979	  14.4406
4680000000.0000	  73.3925	  14.4565
4688000000.0000	  73.3794	  14.4740
4696000000.0000	  73.3675	  14.4935
4704000000.0000	  73.3426	  14.5178
4712000000.0000	  73.3367	  14.5242
4720000000.0000	  73.3213	  14.5426
4728000000.0000	  73.3117	  14.5677
4736000000.0000	  73.2995	  14.5843
4744000000.0000	  73.2726	  14.6008
4752000000.0000	  73.2598	  14.6140
4760000000.0000	  73.2473	  14.6259
4768000000.0000	  73.2309	  14.6438
4776000000.0000	  73.2173	  14.6596
4784000000.0000	  73.2064	  14.6785
4792000000.0000	  73.1948	  14.6905
4800000000.0000	  73.1831	  14.7009
4808000000.0000	  73.1591	  14.7199
4816000000.0000	  73.1565	  14.7386
4824000000.0000	  73.1397	  14.7546
4832000000.0000	  73.1301	  14.7760
4840000000.0000	  73.1100	  14.7905
4848000000.0000	  73.1062	  14.8190
4856000000.0000	  73.0965	  14.8402
4864000000.0000	  73.0801	  14.8509
4872000000.0000	  73.0714	  14.8713
4880000000.0000	  73.0624	  14.8890
4888000000.0000	  73.0467	  14.9169
4896000000.0000	  73.0465	  14.9427
4904000000.0000	  73.0222	  14.9633
4912000000.0000	  73.0075	  14.9654
4920000000.0000	  72.9988	  14.9836
4928000000.0000	  72.9820	  15.0038
4936000000.0000	  72.9848	  15.0084
4944000000.0000	  72.9716	  15.0302
4952000000.0000	  72.9727	  15.0385
4960000000.0000	  72.9513	  15.0546
4968000000.0000	  72.9514	  15.0721
4976000000.0000	  72.9431	  15.0841
4984000000.0000	  72.9279	  15.1014
4992000000.0000	  72.9266	  15.1125
5000000000.0000	  72.9185	  15.1337
